 # Data in column:
 # 1: omega (MHz)
 # 2: R1 (1/s)
 # 3: R2 (1/s)
 # 4: R1_HF (1/s)
 # 5: R2_HF (1/s)
 # 6: DeltaR1 (1/s)
 # 7: DeltaR2 (1/s)
 # 8: R1_low_freq (1/s)
   0.00000000       4.3125919108113520        3.5833573833573831       0.72923452745396855        3.5833573833573831     
   1.1000000000000001        4.3072395545319671        3.5780050272383450       0.72923452729362170        3.5776980007768411     
   1.2100000000000000        4.3068584511696812        3.5776239239097265       0.72923452725995452        3.5774217728317304     
   1.3310000000000002        4.3064673857354441        3.5772328585162287       0.72923452721921522        3.5771320625187868     
   1.4641000000000006        4.3060876555600709        3.5768531283901601       0.72923452716991111        3.5768282117791652     
   1.6105100000000008        4.3057279089136218        3.5764933818033824       0.72923452711023928        3.5765095304349268     
   1.7715610000000011        4.3053830605085759        3.5761485334705001       0.72923452703807579        3.5761752946213434     
   1.9487171000000016        4.3050395361565812        3.5758050092058471       0.72923452695073454        3.5758247451426812     
   2.1435888100000016        4.3046831559526915        3.5754486291076346       0.72923452684505696        3.5754570857477392     
   2.3579476910000019        4.3043050616048317        3.5750705348876579       0.72923452671717393        3.5750714813212112     
   2.5937424601000023        4.3039029777924220        3.5746684512299725       0.72923452656245003        3.5746670559867750     
   2.8531167061100025        4.3034783797826410        3.5742438534074124       0.72923452637522856        3.5742428911175939     
   3.1384283767210031        4.3030327580827485        3.5737982319340560       0.72923452614869277        3.5737980232497142     
   3.4522712143931042        4.3025659319447573        3.5733314060701713       0.72923452587458615        3.5733314418936151     
   3.7974983358324144        4.3020766128164203        3.5728420872735001       0.72923452554292023        3.5728420872389473     
   4.1772481694156562        4.3015634144314703        3.5723288892898890       0.72923452514158127        3.5723288477472384     
   4.5949729863572220        4.3010251320628132        3.5717906074068235       0.72923452465599015        3.5717905576271036     
   5.0544702849929433        4.3004605729724670        3.5712260489040499       0.72923452406841738        3.5712259941862241     
   5.5599173134922379        4.2998684614752776        3.5706339381178305       0.72923452335744754        3.5706338750540758     
   6.1159090448414632        4.2992474506083500        3.5700129281111770       0.72923452249717347        3.5700128552691082     
   6.7274999493256100        4.2985961296955262        3.5693616082392934       0.72923452145623291        3.5693615242237451     
   7.4002499442581708        4.2979130195678286        3.5686784993711163       0.72923452019671209        3.5686784024602805     
   8.1402749386839890        4.2971965687679212        3.5679620500952414       0.72923451867267974        3.5679619383103813     
   8.9543024325523870        4.2964451501393777        3.5672106333107596       0.72923451682861828        3.5672105043705704     
   9.8497326758076280        4.2956570571293398        3.5664225425320484       0.72923451459729161        3.5664223938056812     
   10.834705943388389        4.2948304999162801        3.5655959880188823       0.72923451189739730        3.5655958164718888     
   11.918176537727231        4.2939636013477331        3.5647290927172186       0.72923450863051476        3.5647288948505107     
   13.109994191499954        4.2930543926825653        3.5638198880049763       0.72923450467758943        3.5638196597833396     
   14.420993610649951        4.2921008091243298        3.5628663092297779       0.72923449989455180        3.5628660459998236     
   15.863092971714948        4.2911006851373310        3.5618661910302647       0.72923449410706609        3.5618658874259350     
   17.449402268886445        4.2900517495346708        3.5608172624304490       0.72923448710422167        3.5608169122640678     
   19.194342495775089        4.2889516203272855        3.5597171416965021       0.72923447863078383        3.5597167378327903     
   21.113776745352595        4.2877977993125267        3.5585633309346147       0.72923446837791150        3.5585628651547361     
   23.225154419887858        4.2865876664434373        3.5573532104714944       0.72923445597194314        3.5573526732803313     
   25.547669861876649        4.2853184738354244        3.5560840328747063       0.72923444096071788        3.5560834133344716     
   28.102436848064315        4.2839873395706958        3.5547529167735608       0.72923442279713491        3.5547522022726259     
   30.912680532870748        4.2825912411531721        3.5533568403339486       0.72923440081922364        3.5533560163321805     
   34.003948586157826        4.2811270086564353        3.5518926344305068       0.72923437422592841        3.5518916841641501     
   37.404343444773609        4.2795913175351696        3.5503569754870790       0.72923434204809112        3.5503558796296599     
   41.144777789250973        4.2779806810865191        3.5487463779736128       0.72923430311290593        3.5487451142448267     
   45.259255568176073        4.2762914425430454        3.5470571865417155       0.72923425600132996        3.5470557292568876     
   49.785181124993684        4.2745197667787362        3.5452855677823609       0.72923419899637532        3.5452838873335715     
   54.763699237493050        4.2726616316095214        3.5434275015891132       0.72923413002040838        3.5434255638468382     
   60.240069161242367        4.2707128186660448        3.5414787721064815       0.72923404655956370        3.5414765377311901     
   66.264076077366596        4.2686689038196866        3.5394349582476425       0.72923394557204435        3.5394323818957836     
   72.890483685103263        4.2665252471352995        3.5372914237580111       0.72923382337728859        3.5372884531685709     
   80.179532053613613        4.2642769823151632        3.5350433067933458       0.72923367552181739        3.5350398817496238     
   88.197485258974979        4.2619190056935086        3.5326855090765146       0.72923349661699388        3.5326815601496895     
   97.017233784872474        4.2594459645330867        3.5302126843904973       0.72923328014258948        3.5302081315888478     
   106.71895716335973        4.2568522448922135        3.5276192266830124       0.72923301820920117        3.5276139778289202     
   117.39085287969573        4.2541319588024926        3.5248992575317510       0.72923270127074169        3.5248932064119942     
   129.12993816766530        4.2512789308171852        3.5220466130406205       0.72923231777656483        3.5220396372760741     
   142.04293198443185        4.2482866838744435        3.5190548301238667       0.72923185375057720        3.5190467887174552     
   156.24722518287504        4.2451484244351123        3.5159171321530494       0.72923129228206285        3.5159078626679432     
   171.87194770116253        4.2418570268513198        3.5126264139418715       0.72923061290944813        3.5126157292534628     
   189.05914247127879        4.2384050169150793        3.5091752260402687       0.72922979087481066        3.5091629105989992     
   207.96505671840669        4.2347845545337490        3.5055557583116879       0.72922879622206149        3.5055415638430705     
   228.76156239024741        4.2309874154709233        3.5017598227652802       0.72922759270564297        3.5017434633231606     
   251.63771862927217        4.2270049720738969        3.4977788356035058       0.72922613647039125        3.4977599818916394     
   276.80149049219938        4.2228281729621768        3.4936037985077308       0.72922437445444577        3.4935820713197385     
   304.48163954141938        4.2184475215147348        3.4892252790574991       0.72922224245723521        3.4892002417450652     
   334.92980349556137        4.2138530530912215        3.4846333902890620       0.72921966280215911        3.4846045401159738     
   368.42278384511746        4.2090343108773292        3.4798177693676635       0.72921654150966575        3.4797845275838331     
   405.26506222962922        4.2039803203042592        3.4747675554265367       0.72921276487772246        3.4747292557918330     
   445.79156845259217        4.1986795616814625        3.4694713663351822       0.72920819534627990        3.4694272420064780     
   490.37072529785144        4.1931199411007540        3.4639172746046718       0.72920266649608234        3.4638664430352781     
   539.40779782763673        4.1872887593020955        3.4580927823006684       0.72919597700142702        3.4580342278713876     
   593.34857761040041        4.1811726782186396        3.4519847948995004       0.72918788331913886        3.4519173490030672     
   652.68343537144040        4.1747576850250407        3.4455795941740281       0.72917809085101215        3.4455019123227881     
   717.95177890858463        4.1680290532878166        3.4388628100240970       0.72916624326371970        3.4387733455676357     
   789.74695679944318        4.1609713008522471        3.4318193912673851       0.72915190958486198        3.4317163652193288     
   868.72165247938756        4.1535681440012526        3.4244335753840409       0.72913456861721182        3.4243149417886611     
   955.59381772732627        4.1458024473393502        3.4166888572183116       0.72911359012103871        3.4165522634055230     
   1051.1531995000591        4.1376561687508868        3.4085679566462934       0.72908821210459296        3.4084106976317887     
   1156.2685194500652        4.1291102986669364        3.4000527852336808       0.72905751343325575        3.3998717514103372     
   1271.8953713950716        4.1201447927256183        3.3911244119109263       0.72902038081469234        3.3909160290592295     
   1399.0849085345790        4.1107384967507983        3.3817630277125903       0.72897546903820842        3.3815231882156325     
   1538.9933993880372        4.1008690627724755        3.3719479096348688       0.72892115313760664        3.3716718936294141     
   1692.8927393268411        4.0905128546009735        3.3616573836932360       0.72885547090773761        3.3613397687014572     
   1862.1820132595251        4.0796448412047086        3.3508687872728333       0.72877605393187550        3.3505033446566173     
   2048.4002145854779        4.0682384758659573        3.3395584308918109       0.72868004497414629        3.3391380072358650     
   2253.2402360440260        4.0562655587880405        3.3277015595265551       0.72856399926148541        3.3272179407865403     
   2478.5642596484290        4.0436960805096920        3.3152723136744151       0.72842376683527654        3.3147160696237128     
   2726.4206856132723        4.0304980431881905        3.3022436903754961       0.72825435281269391        3.3016039965294564     
   2999.0627541745998        4.0166372565429267        3.2885875044437403       0.72804975209918676        3.2878519382503457     
   3298.9690295920600        4.0020771051107502        3.2742743502235645       0.72780275488718571        3.2734286578466634     
   3628.8659325512658        3.9867782834756049        3.2592735642249493       0.72750471925065574        3.2583013937396421     
   3991.7525258063934        3.9706984965039984        3.2435531890803935       0.72714530742360473        3.2424357852955916     
   4390.9277783870330        3.9537921224315520        3.2270799393160772       0.72671218311547503        3.2257957947778682     
   4830.0205562257361        3.9360098382637432        3.2098191695379832       0.72619066872575999        3.2083436254894124     
   5313.0226118483115        3.9172982096472779        3.1917348457263586       0.72556336392091914        3.1900396359199163     
   5844.3248730331425        3.8975992516369358        3.1727895204473238       0.72480973118961201        3.1708422497026154     
   6428.7573603364581        3.8768499731958932        3.1529443129319255       0.72390566026396785        3.1507078611761701     
   7071.6330963701048        3.8549819274615400        3.1321588951237564       0.72282303233778356        3.1295907363371382     
   7778.7964060071163        3.8319208024473763        3.1103914849836451       0.72152931746373106        3.1074429089580486     
   8556.6760466078285        3.8075861033225693        3.0875988485422554       0.71998725478031400        3.0842140716351141     
   9412.3436512686112        3.7818909975082051        3.0637363124386772       0.71815468506952795        3.0598514615181149     
   10353.578016395473        3.7547424159100355        3.0387577889685362       0.71598462694149911        3.0342997404628869     
   11388.935818035023        3.7260415234160922        3.0126158159694105       0.71342570744668143        3.0075008693341880     
   12527.829399838523        3.6956846807650328        2.9852616142686323       0.71042306649640063        2.9793939761734372     
   13780.612339822377        3.6635650026826987        2.9566451658250430       0.70691983685765580        2.9499152179318688     
   15158.673573804615        3.6295745498595093        2.9267153161879764       0.70285923367153302        2.9189976354550424     
   16674.540931185082        3.5936070421326267        2.8954199054666754       0.69818713666595111        2.8865710013893171     
   18341.995024303593        3.5555607117973183        2.8627059326050839       0.69285477919223448        2.8525616606648083     
   20176.194526733954        3.5153405118702059        2.8285197584861286       0.68682075338407744        2.8168923631925105     
   22193.813979407350        3.4728584006082639        2.7928073541476079       0.68005104646065606        2.7794820883955511     
   24413.195377348089        3.4280300341324859        2.7555146012598413       0.67251543287264470        2.7402458611760232     
   26854.514915082898        3.3807663679352387        2.7165876529189417       0.66417871501629688        2.6990945588993678     
   29539.966406591189        3.3309601883183997        2.6759733637644265       0.65498682455397306        2.6559347089578869     
   32493.963047250309        3.2784714321220023        2.6336197994027737       0.64485163271922852        2.6106682764535662     
   35743.359351975349        3.2231216102155713        2.5894768360221931       0.63364477419337806        2.5631924415179372     
   39317.695287172879        3.1647143174716872        2.5434968618967537       0.62121745557493335        2.5133993657631839     
   43249.464815890176        3.1030974207495619        2.4956355930520102       0.60746182769755153        2.4611759473339925     
   47574.411297479201        3.0382576706018236        2.4458530155713656       0.59240465503045792        2.4064035640037642     
   52331.852427227117        2.9703773674696201        2.3941144666986500       0.57626290077097020        2.3489578037316532     
   57565.037669949845        2.8997094320589847        2.3403918657541172       0.55931756630486740        2.2887081820684019     
   63321.541436944834        2.8261556955703440        2.2846651037038717       0.54149059186647219        2.2255178457690801     
   69653.695580639309        2.7487485044674651        2.2269235965890459       0.52182490787841940        2.1592432619395039     
   76619.065138703256        2.6657973469830574        2.1671680026055817       0.49862934437747569        2.0897338920102499     
   84280.971652573586        2.5764298446806393        2.1054120949594766       0.47101774972116289        2.0168318497977156     
   92709.068817830950        2.4822994233226257        2.0416847723082063       0.44061465101441949        1.9403715428755366     
   101979.97569961405        2.3858159258781924        1.9760321752580854       0.40978375062010680        1.8601792964417492     
   112177.97326957546        2.2853432274460665        1.9085198607791061       0.37682336666696026        1.7760729588273518     
   123395.77059653302        2.1777154359146746        1.8392349665026175       0.33848046941205723        1.6878614877501859     
   135735.34765618632        2.0678187007979565        1.7682882740017078       0.29953042679624842        1.5953445163743485     
   149308.88242180497        1.9595131760734092        1.6958160551086872       0.26369712096472203        1.4983118981894656     
   164239.77066398552        1.8449938210129184        1.6219815595210316       0.22301226149188685        1.3965432296760447     
   180663.74773038409        1.7274026428654237        1.5469759774756984       0.18042666538972524        1.2898073496726736     
   198730.12250342252        1.6085307548763219        1.4710186910386289       0.13751206383769288        1.1778618143079105     
   218603.13475376478        1.4874039029916528        1.3943566151218294        9.3047287869823497E-002   1.0604523463042024     
   240463.44822914127        1.3706562648904179        1.3172624288802188        5.3393836010199106E-002  0.93731225740296331     
   264509.79305205541        1.2524516774181691        1.2400315140566285        1.2420163361540672E-002  0.80816184259888457     
   290960.77235726098        1.1379732529653830        1.1629774535950439       -2.5004200629660939E-002  0.67270774480752094     
   320056.84959298710        1.0320223166021552        1.0864260057251707       -5.4403689123015582E-002  0.53064228852303419     
   352062.53455228586       0.92578084707536923        1.0107075602944378       -8.4926713219068556E-002  0.38164278095253445     
   387268.78800751443       0.82906664022069387       0.93614821155158523      -0.10708157133089141       0.22537077903959890     
   425995.66680826596       0.73676435183573741       0.86305975553013781      -0.12629540369440045        6.1471320712049415E-002
   468595.23348909261       0.64879435620804748       0.79172916054320186      -0.14293480433515440      -0.11042788139217974     
   515454.75683800189       0.56849154415944447       0.72240840065719070      -0.15391685649774617      -0.29071728555248422     
   567000.23252180207       0.49623121638049783       0.65530603458421632      -0.15907481820371847      -0.47980640786713602     
   623700.25577398238       0.42988940208140924       0.59058260375777460      -0.16069320167636533      -0.67812475244347192     
   686070.28135138063       0.37059752834714743       0.52835278759963145      -0.15775525925248399      -0.88612278698958802     
   754677.30948651873       0.31556808413973725       0.46869801608339806      -0.15312993194366079       -1.1042729660235566     
   830145.04043517052       0.26581063040224601       0.41169306665815136      -0.14588243625590536       -1.3330708040242860     
   913159.54447868769       0.22077182377994775       0.35744740841310285      -0.13667558463315510       -1.5730360009616517     
   1004475.4989265566       0.17919969577671574       0.30615471959368806      -0.12695502381697232       -1.8247136227624527     
   1104923.0488192122       0.14318345245964675       0.25813227128433192      -0.11494881882468518       -2.0886753393935558     
   1215415.3537011335       0.11020927854623520       0.21382227471178564      -0.10361299616555043       -2.3655207233744373     
   1336956.8890712473        8.1303770465486994E-002  0.17373294640442796       -9.2429175938940969E-002  -2.6558786116686499     
   1470652.5779783721        5.7738172852462272E-002  0.13832548420231691       -8.0587311349854640E-002  -2.9604085340476201     
   1617717.8357762091        3.7337270243914034E-002  0.10788907268653415       -7.0551802442620118E-002  -3.2798022111712535     
